"# Channel 1"
"# Trace 1"
Frequency, Formatted Data, Formatted Data
+2.00000000000E+008, -7.22897141950E-001, +0.00000000000E+000
+2.03272727273E+008, -7.09737087329E-001, +0.00000000000E+000
+2.06545454545E+008, -6.94651647557E-001, +0.00000000000E+000
+2.09818181818E+008, -6.77528185089E-001, +0.00000000000E+000
+2.13090909091E+008, -6.60513476383E-001, +0.00000000000E+000
+2.16363636364E+008, -6.45079952830E-001, +0.00000000000E+000
+2.19636363636E+008, -6.32556980668E-001, +0.00000000000E+000
+2.22909090909E+008, -6.25038298664E-001, +0.00000000000E+000
+2.26181818182E+008, -6.22097158861E-001, +0.00000000000E+000
+2.29454545455E+008, -6.25027952326E-001, +0.00000000000E+000
+2.32727272727E+008, -6.33787940916E-001, +0.00000000000E+000
+2.36000000000E+008, -6.47921000197E-001, +0.00000000000E+000
+2.39272727273E+008, -6.67396917140E-001, +0.00000000000E+000
+2.42545454545E+008, -6.90891957595E-001, +0.00000000000E+000
+2.45818181818E+008, -7.17387936566E-001, +0.00000000000E+000
+2.49090909091E+008, -7.45817184714E-001, +0.00000000000E+000
+2.52363636364E+008, -7.73769898548E-001, +0.00000000000E+000
+2.55636363636E+008, -8.00642150513E-001, +0.00000000000E+000
+2.58909090909E+008, -8.24628584279E-001, +0.00000000000E+000
+2.62181818182E+008, -8.45383505311E-001, +0.00000000000E+000
+2.65454545455E+008, -8.61542038614E-001, +0.00000000000E+000
+2.68727272727E+008, -8.71422215014E-001, +0.00000000000E+000
+2.72000000000E+008, -8.76055979194E-001, +0.00000000000E+000
+2.75272727273E+008, -8.76409508153E-001, +0.00000000000E+000
+2.78545454545E+008, -8.75252515855E-001, +0.00000000000E+000
+2.81818181818E+008, -8.62338882717E-001, +0.00000000000E+000
+2.85090909091E+008, -8.47974309484E-001, +0.00000000000E+000
+2.88363636364E+008, -8.34426039633E-001, +0.00000000000E+000
+2.91636363636E+008, -8.18298553482E-001, +0.00000000000E+000
+2.94909090909E+008, -8.01574807664E-001, +0.00000000000E+000
+2.98181818182E+008, -7.86635314271E-001, +0.00000000000E+000
+3.01454545455E+008, -7.73643361610E-001, +0.00000000000E+000
+3.04727272727E+008, -7.62868200351E-001, +0.00000000000E+000
+3.08000000000E+008, -7.56735980588E-001, +0.00000000000E+000
+3.11272727273E+008, -7.55686107831E-001, +0.00000000000E+000
+3.14545454545E+008, -7.60479016539E-001, +0.00000000000E+000
+3.17818181818E+008, -7.70353301363E-001, +0.00000000000E+000
+3.21090909091E+008, -7.86084410764E-001, +0.00000000000E+000
+3.24363636364E+008, -8.06240128135E-001, +0.00000000000E+000
+3.27636363636E+008, -8.30715438989E-001, +0.00000000000E+000
+3.30909090909E+008, -8.58271815697E-001, +0.00000000000E+000
+3.34181818182E+008, -8.87486132353E-001, +0.00000000000E+000
+3.37454545455E+008, -9.18180204015E-001, +0.00000000000E+000
+3.40727272727E+008, -9.49571148204E-001, +0.00000000000E+000
+3.44000000000E+008, -9.68849562662E-001, +0.00000000000E+000
+3.47272727273E+008, -9.86254882963E-001, +0.00000000000E+000
+3.50545454545E+008, -1.00207876228E+000, +0.00000000000E+000
+3.53818181818E+008, -1.01530516441E+000, +0.00000000000E+000
+3.57090909091E+008, -1.02469657909E+000, +0.00000000000E+000
+3.60363636364E+008, -1.03111363076E+000, +0.00000000000E+000
+3.63636363636E+008, -1.03538233419E+000, +0.00000000000E+000
+3.66909090909E+008, -1.02626549896E+000, +0.00000000000E+000
+3.70181818182E+008, -1.01631705368E+000, +0.00000000000E+000
+3.73454545455E+008, -1.00493934930E+000, +0.00000000000E+000
+3.76727272727E+008, -9.94484290092E-001, +0.00000000000E+000
+3.80000000000E+008, -9.85335920910E-001, +0.00000000000E+000
+3.83272727273E+008, -9.77932721624E-001, +0.00000000000E+000
+3.86545454545E+008, -9.73076310141E-001, +0.00000000000E+000
+3.89818181818E+008, -9.71445086231E-001, +0.00000000000E+000
+3.93090909091E+008, -9.74268515473E-001, +0.00000000000E+000
+3.96363636364E+008, -9.81677263675E-001, +0.00000000000E+000
+3.99636363636E+008, -9.93161448576E-001, +0.00000000000E+000
+4.02909090909E+008, -1.01187536369E+000, +0.00000000000E+000
+4.06181818182E+008, -1.03434164194E+000, +0.00000000000E+000
+4.09454545455E+008, -1.06049078109E+000, +0.00000000000E+000
+4.12727272727E+008, -1.08883248765E+000, +0.00000000000E+000
+4.16000000000E+008, -1.11817361346E+000, +0.00000000000E+000
+4.19272727273E+008, -1.14732552767E+000, +0.00000000000E+000
+4.22545454545E+008, -1.17435617072E+000, +0.00000000000E+000
+4.25818181818E+008, -1.19932066725E+000, +0.00000000000E+000
+4.29090909091E+008, -1.21999934075E+000, +0.00000000000E+000
+4.32363636364E+008, -1.23586007920E+000, +0.00000000000E+000
+4.35636363636E+008, -1.24775744254E+000, +0.00000000000E+000
+4.38909090909E+008, -1.25417225842E+000, +0.00000000000E+000
+4.42181818182E+008, -1.25692423352E+000, +0.00000000000E+000
+4.45454545455E+008, -1.25615574478E+000, +0.00000000000E+000
+4.48727272727E+008, -1.25287328007E+000, +0.00000000000E+000
+4.52000000000E+008, -1.24781806652E+000, +0.00000000000E+000
+4.55272727273E+008, -1.24204662399E+000, +0.00000000000E+000
+4.58545454545E+008, -1.23802562211E+000, +0.00000000000E+000
+4.61818181818E+008, -1.23573415569E+000, +0.00000000000E+000
+4.65090909091E+008, -1.23458472037E+000, +0.00000000000E+000
+4.68363636364E+008, -1.23582489776E+000, +0.00000000000E+000
+4.71636363636E+008, -1.24219710144E+000, +0.00000000000E+000
+4.74909090909E+008, -1.25353934881E+000, +0.00000000000E+000
+4.78181818182E+008, -1.26952458091E+000, +0.00000000000E+000
+4.81454545455E+008, -1.29092164846E+000, +0.00000000000E+000
+4.84727272727E+008, -1.31641777945E+000, +0.00000000000E+000
+4.88000000000E+008, -1.34544364667E+000, +0.00000000000E+000
+4.91272727273E+008, -1.37703285363E+000, +0.00000000000E+000
+4.94545454545E+008, -1.41184123789E+000, +0.00000000000E+000
+4.97818181818E+008, -1.44868250049E+000, +0.00000000000E+000
+5.01090909091E+008, -1.48349149142E+000, +0.00000000000E+000
+5.04363636364E+008, -1.51074115226E+000, +0.00000000000E+000
+5.07636363636E+008, -1.53275479157E+000, +0.00000000000E+000
+5.10909090909E+008, -1.54899728676E+000, +0.00000000000E+000
+5.14181818182E+008, -1.56342290189E+000, +0.00000000000E+000
+5.17454545455E+008, -1.57777088232E+000, +0.00000000000E+000
+5.20727272727E+008, -1.58991753921E+000, +0.00000000000E+000
+5.24000000000E+008, -1.59899590572E+000, +0.00000000000E+000
+5.27272727273E+008, -1.60570248843E+000, +0.00000000000E+000
+5.30545454545E+008, -1.61105248264E+000, +0.00000000000E+000
+5.33818181818E+008, -1.61595935145E+000, +0.00000000000E+000
+5.37090909091E+008, -1.61987894647E+000, +0.00000000000E+000
+5.40363636364E+008, -1.62538840565E+000, +0.00000000000E+000
+5.43636363636E+008, -1.63282087854E+000, +0.00000000000E+000
+5.46909090909E+008, -1.64335095791E+000, +0.00000000000E+000
+5.50181818182E+008, -1.65688442658E+000, +0.00000000000E+000
+5.53454545455E+008, -1.67015449789E+000, +0.00000000000E+000
+5.56727272727E+008, -1.68811710534E+000, +0.00000000000E+000
+5.60000000000E+008, -1.71251246148E+000, +0.00000000000E+000
+5.63272727273E+008, -1.73925720641E+000, +0.00000000000E+000
+5.66545454545E+008, -1.75902425290E+000, +0.00000000000E+000
+5.69818181818E+008, -1.78395248600E+000, +0.00000000000E+000
+5.73090909091E+008, -1.81337377086E+000, +0.00000000000E+000
+5.76363636364E+008, -1.84541452442E+000, +0.00000000000E+000
+5.79636363636E+008, -1.87863798662E+000, +0.00000000000E+000
+5.82909090909E+008, -1.91198804944E+000, +0.00000000000E+000
+5.86181818182E+008, -1.94568442521E+000, +0.00000000000E+000
+5.89454545455E+008, -1.97971393118E+000, +0.00000000000E+000
+5.92727272727E+008, -2.01235613689E+000, +0.00000000000E+000
+5.96000000000E+008, -2.04282751311E+000, +0.00000000000E+000
+5.99272727273E+008, -2.07076189260E+000, +0.00000000000E+000
+6.02545454545E+008, -2.10122177954E+000, +0.00000000000E+000
+6.05818181818E+008, -2.13003678066E+000, +0.00000000000E+000
+6.09090909091E+008, -2.15502107916E+000, +0.00000000000E+000
+6.12363636364E+008, -2.17552489814E+000, +0.00000000000E+000
+6.15636363636E+008, -2.19084834075E+000, +0.00000000000E+000
+6.18909090909E+008, -2.20198637746E+000, +0.00000000000E+000
+6.22181818182E+008, -2.21147788572E+000, +0.00000000000E+000
+6.25454545455E+008, -2.22248099771E+000, +0.00000000000E+000
+6.28727272727E+008, -2.23763503929E+000, +0.00000000000E+000
+6.32000000000E+008, -2.24980319028E+000, +0.00000000000E+000
+6.35272727273E+008, -2.24293909182E+000, +0.00000000000E+000
+6.38545454545E+008, -2.23980267992E+000, +0.00000000000E+000
+6.41818181818E+008, -2.24843128838E+000, +0.00000000000E+000
+6.45090909091E+008, -2.26412201237E+000, +0.00000000000E+000
+6.48363636364E+008, -2.28676117178E+000, +0.00000000000E+000
+6.51636363636E+008, -2.31746620505E+000, +0.00000000000E+000
+6.54909090909E+008, -2.35511605457E+000, +0.00000000000E+000
+6.58181818182E+008, -2.39669673766E+000, +0.00000000000E+000
+6.61454545455E+008, -2.44139289160E+000, +0.00000000000E+000
+6.64727272727E+008, -2.49090354535E+000, +0.00000000000E+000
+6.68000000000E+008, -2.54503907543E+000, +0.00000000000E+000
+6.71272727273E+008, -2.60100833208E+000, +0.00000000000E+000
+6.74545454545E+008, -2.65704949450E+000, +0.00000000000E+000
+6.77818181818E+008, -2.71255912537E+000, +0.00000000000E+000
+6.81090909091E+008, -2.76538179823E+000, +0.00000000000E+000
+6.84363636364E+008, -2.81390988651E+000, +0.00000000000E+000
+6.87636363636E+008, -2.85661017870E+000, +0.00000000000E+000
+6.90909090909E+008, -2.89174447388E+000, +0.00000000000E+000
+6.94181818182E+008, -2.91949450145E+000, +0.00000000000E+000
+6.97454545455E+008, -2.94311662368E+000, +0.00000000000E+000
+7.00727272727E+008, -2.95926595940E+000, +0.00000000000E+000
+7.04000000000E+008, -2.96518552893E+000, +0.00000000000E+000
+7.07272727273E+008, -2.97236878318E+000, +0.00000000000E+000
+7.10545454545E+008, -2.98418475483E+000, +0.00000000000E+000
+7.13818181818E+008, -3.00225061340E+000, +0.00000000000E+000
+7.17090909091E+008, -3.02729502632E+000, +0.00000000000E+000
+7.20363636364E+008, -3.06064993763E+000, +0.00000000000E+000
+7.23636363636E+008, -3.10339594422E+000, +0.00000000000E+000
+7.26909090909E+008, -3.15542325641E+000, +0.00000000000E+000
+7.30181818182E+008, -3.21764753021E+000, +0.00000000000E+000
+7.33454545455E+008, -3.28905374042E+000, +0.00000000000E+000
+7.36727272727E+008, -3.36896769762E+000, +0.00000000000E+000
+7.40000000000E+008, -3.45795237177E+000, +0.00000000000E+000
+7.43272727273E+008, -3.55528403597E+000, +0.00000000000E+000
+7.46545454545E+008, -3.66094103408E+000, +0.00000000000E+000
+7.49818181818E+008, -3.77552054022E+000, +0.00000000000E+000
+7.53090909091E+008, -3.90645109811E+000, +0.00000000000E+000
+7.56363636364E+008, -4.05078278169E+000, +0.00000000000E+000
+7.59636363636E+008, -4.14920683730E+000, +0.00000000000E+000
+7.62909090909E+008, -4.13549685259E+000, +0.00000000000E+000
+7.66181818182E+008, -4.12500196927E+000, +0.00000000000E+000
+7.69454545455E+008, -4.15578342568E+000, +0.00000000000E+000
+7.72727272727E+008, -4.20624201482E+000, +0.00000000000E+000
+7.76000000000E+008, -4.26538329168E+000, +0.00000000000E+000
+7.79272727273E+008, -4.33450403422E+000, +0.00000000000E+000
+7.82545454545E+008, -4.41582982339E+000, +0.00000000000E+000
+7.85818181818E+008, -4.49772914826E+000, +0.00000000000E+000
+7.89090909091E+008, -4.52439921714E+000, +0.00000000000E+000
+7.92363636364E+008, -4.49453856193E+000, +0.00000000000E+000
+7.95636363636E+008, -4.49138382361E+000, +0.00000000000E+000
+7.98909090909E+008, -4.52930183423E+000, +0.00000000000E+000
+8.02181818182E+008, -4.59450402649E+000, +0.00000000000E+000
+8.05454545455E+008, -4.67794503054E+000, +0.00000000000E+000
+8.08727272727E+008, -4.77454544214E+000, +0.00000000000E+000
+8.12000000000E+008, -4.88402027556E+000, +0.00000000000E+000
+8.15272727273E+008, -5.00527630777E+000, +0.00000000000E+000
+8.18545454545E+008, -5.13490171140E+000, +0.00000000000E+000
+8.21818181818E+008, -5.26917320373E+000, +0.00000000000E+000
+8.25090909091E+008, -5.40793065081E+000, +0.00000000000E+000
+8.28363636364E+008, -5.55492031913E+000, +0.00000000000E+000
+8.31636363636E+008, -5.71341499056E+000, +0.00000000000E+000
+8.34909090909E+008, -5.88445509193E+000, +0.00000000000E+000
+8.38181818182E+008, -6.06404917982E+000, +0.00000000000E+000
+8.41454545455E+008, -6.24251973223E+000, +0.00000000000E+000
+8.44727272727E+008, -6.41364757517E+000, +0.00000000000E+000
+8.48000000000E+008, -6.57596701579E+000, +0.00000000000E+000
+8.51272727273E+008, -6.72422663491E+000, +0.00000000000E+000
+8.54545454545E+008, -6.85967695325E+000, +0.00000000000E+000
+8.57818181818E+008, -6.97995677981E+000, +0.00000000000E+000
+8.61090909091E+008, -7.07686374068E+000, +0.00000000000E+000
+8.64363636364E+008, -7.15505550163E+000, +0.00000000000E+000
+8.67636363636E+008, -7.24894526279E+000, +0.00000000000E+000
+8.70909090909E+008, -7.36990080024E+000, +0.00000000000E+000
+8.74181818182E+008, -7.51805512377E+000, +0.00000000000E+000
+8.77454545455E+008, -7.68088187005E+000, +0.00000000000E+000
+8.80727272727E+008, -7.85021185224E+000, +0.00000000000E+000
+8.84000000000E+008, -8.02521924885E+000, +0.00000000000E+000
+8.87272727273E+008, -8.21089056816E+000, +0.00000000000E+000
+8.90545454545E+008, -8.40937163264E+000, +0.00000000000E+000
+8.93818181818E+008, -8.61871017583E+000, +0.00000000000E+000
+8.97090909091E+008, -8.84031101348E+000, +0.00000000000E+000
+9.00363636364E+008, -9.08565185017E+000, +0.00000000000E+000
+9.03636363636E+008, -9.36148070790E+000, +0.00000000000E+000
+9.06909090909E+008, -9.67489792605E+000, +0.00000000000E+000
+9.10181818182E+008, -1.00267686586E+001, +0.00000000000E+000
+9.13454545455E+008, -1.04165761160E+001, +0.00000000000E+000
+9.16727272727E+008, -1.08440408184E+001, +0.00000000000E+000
+9.20000000000E+008, -1.13012001246E+001, +0.00000000000E+000
+9.23272727273E+008, -1.17803061692E+001, +0.00000000000E+000
+9.26545454545E+008, -1.22730023139E+001, +0.00000000000E+000
+9.29818181818E+008, -1.27657216465E+001, +0.00000000000E+000
+9.33090909091E+008, -1.32453052464E+001, +0.00000000000E+000
+9.36363636364E+008, -1.36965039050E+001, +0.00000000000E+000
+9.39636363636E+008, -1.41065064781E+001, +0.00000000000E+000
+9.42909090909E+008, -1.44619753843E+001, +0.00000000000E+000
+9.46181818182E+008, -1.47474402581E+001, +0.00000000000E+000
+9.49454545455E+008, -1.49650480670E+001, +0.00000000000E+000
+9.52727272727E+008, -1.51255515561E+001, +0.00000000000E+000
+9.56000000000E+008, -1.52540983822E+001, +0.00000000000E+000
+9.59272727273E+008, -1.54020266178E+001, +0.00000000000E+000
+9.62545454545E+008, -1.56164414071E+001, +0.00000000000E+000
+9.65818181818E+008, -1.59217540014E+001, +0.00000000000E+000
+9.69090909091E+008, -1.63358265333E+001, +0.00000000000E+000
+9.72363636364E+008, -1.68689852310E+001, +0.00000000000E+000
+9.75636363636E+008, -1.75235872328E+001, +0.00000000000E+000
+9.78909090909E+008, -1.83080196660E+001, +0.00000000000E+000
+9.82181818182E+008, -1.92284443323E+001, +0.00000000000E+000
+9.85454545455E+008, -2.02900581878E+001, +0.00000000000E+000
+9.88727272727E+008, -2.14778184184E+001, +0.00000000000E+000
+9.92000000000E+008, -2.27293932546E+001, +0.00000000000E+000
+9.95272727273E+008, -2.38820948455E+001, +0.00000000000E+000
+9.98545454545E+008, -2.46754623178E+001, +0.00000000000E+000
+1.00181818182E+009, -2.48288431336E+001, +0.00000000000E+000
+1.00509090909E+009, -2.43101720734E+001, +0.00000000000E+000
+1.00836363636E+009, -2.33420655300E+001, +0.00000000000E+000
+1.01163636364E+009, -2.21900765793E+001, +0.00000000000E+000
+1.01490909091E+009, -2.10289596224E+001, +0.00000000000E+000
+1.01818181818E+009, -1.99135288151E+001, +0.00000000000E+000
+1.02145454545E+009, -1.88715254886E+001, +0.00000000000E+000
+1.02472727273E+009, -1.79373988549E+001, +0.00000000000E+000
+1.02800000000E+009, -1.71288258053E+001, +0.00000000000E+000
+1.03127272727E+009, -1.64425473457E+001, +0.00000000000E+000
+1.03454545455E+009, -1.58700254719E+001, +0.00000000000E+000
+1.03781818182E+009, -1.54041733678E+001, +0.00000000000E+000
+1.04109090909E+009, -1.50373493784E+001, +0.00000000000E+000
+1.04436363636E+009, -1.47528474598E+001, +0.00000000000E+000
+1.04763636364E+009, -1.45281443185E+001, +0.00000000000E+000
+1.05090909091E+009, -1.43405771131E+001, +0.00000000000E+000
+1.05418181818E+009, -1.41744608983E+001, +0.00000000000E+000
+1.05745454545E+009, -1.40166140268E+001, +0.00000000000E+000
+1.06072727273E+009, -1.38470303241E+001, +0.00000000000E+000
+1.06400000000E+009, -1.36385167511E+001, +0.00000000000E+000
+1.06727272727E+009, -1.33832212991E+001, +0.00000000000E+000
+1.07054545455E+009, -1.30929676784E+001, +0.00000000000E+000
+1.07381818182E+009, -1.27823496075E+001, +0.00000000000E+000
+1.07709090909E+009, -1.24576473317E+001, +0.00000000000E+000
+1.08036363636E+009, -1.21204922632E+001, +0.00000000000E+000
+1.08363636364E+009, -1.17695906503E+001, +0.00000000000E+000
+1.08690909091E+009, -1.14086755889E+001, +0.00000000000E+000
+1.09018181818E+009, -1.10459691390E+001, +0.00000000000E+000
+1.09345454545E+009, -1.06944148535E+001, +0.00000000000E+000
+1.09672727273E+009, -1.03637803946E+001, +0.00000000000E+000
+1.10000000000E+009, -1.00594065438E+001, +0.00000000000E+000
+1.10327272727E+009, -9.79004849107E+000, +0.00000000000E+000
+1.10654545455E+009, -9.55685727218E+000, +0.00000000000E+000
+1.10981818182E+009, -9.35997401229E+000, +0.00000000000E+000
+1.11309090909E+009, -9.19693945663E+000, +0.00000000000E+000
+1.11636363636E+009, -9.06742010915E+000, +0.00000000000E+000
+1.11963636364E+009, -8.97009138056E+000, +0.00000000000E+000
+1.12290909091E+009, -8.89989358567E+000, +0.00000000000E+000
+1.12618181818E+009, -8.84398189814E+000, +0.00000000000E+000
+1.12945454545E+009, -8.79191491096E+000, +0.00000000000E+000
+1.13272727273E+009, -8.74896904630E+000, +0.00000000000E+000
+1.13600000000E+009, -8.71671380106E+000, +0.00000000000E+000
+1.13927272727E+009, -8.69011870152E+000, +0.00000000000E+000
+1.14254545455E+009, -8.65907862132E+000, +0.00000000000E+000
+1.14581818182E+009, -8.60173400607E+000, +0.00000000000E+000
+1.14909090909E+009, -8.52345549870E+000, +0.00000000000E+000
+1.15236363636E+009, -8.43908110227E+000, +0.00000000000E+000
+1.15563636364E+009, -8.35145339588E+000, +0.00000000000E+000
+1.15890909091E+009, -8.26265164167E+000, +0.00000000000E+000
+1.16218181818E+009, -8.17189377506E+000, +0.00000000000E+000
+1.16545454545E+009, -8.06211317658E+000, +0.00000000000E+000
+1.16872727273E+009, -7.91202413317E+000, +0.00000000000E+000
+1.17200000000E+009, -7.72499419040E+000, +0.00000000000E+000
+1.17527272727E+009, -7.52427953995E+000, +0.00000000000E+000
+1.17854545455E+009, -7.33334834456E+000, +0.00000000000E+000
+1.18181818182E+009, -7.16851667718E+000, +0.00000000000E+000
+1.18509090909E+009, -7.04056922433E+000, +0.00000000000E+000
+1.18836363636E+009, -6.95207868200E+000, +0.00000000000E+000
+1.19163636364E+009, -6.89046232195E+000, +0.00000000000E+000
+1.19490909091E+009, -6.82958305111E+000, +0.00000000000E+000
+1.19818181818E+009, -6.75279915743E+000, +0.00000000000E+000
+1.20145454545E+009, -6.67223513184E+000, +0.00000000000E+000
+1.20472727273E+009, -6.60037003102E+000, +0.00000000000E+000
+1.20800000000E+009, -6.53580120535E+000, +0.00000000000E+000
+1.21127272727E+009, -6.47753943835E+000, +0.00000000000E+000
+1.21454545455E+009, -6.42348780299E+000, +0.00000000000E+000
+1.21781818182E+009, -6.37157469148E+000, +0.00000000000E+000
+1.22109090909E+009, -6.31914967152E+000, +0.00000000000E+000
+1.22436363636E+009, -6.26192889751E+000, +0.00000000000E+000
+1.22763636364E+009, -6.19701247367E+000, +0.00000000000E+000
+1.23090909091E+009, -6.12332890824E+000, +0.00000000000E+000
+1.23418181818E+009, -6.04071618281E+000, +0.00000000000E+000
+1.23745454545E+009, -5.95210060416E+000, +0.00000000000E+000
+1.24072727273E+009, -5.86023474374E+000, +0.00000000000E+000
+1.24400000000E+009, -5.76807257407E+000, +0.00000000000E+000
+1.24727272727E+009, -5.67808466402E+000, +0.00000000000E+000
